Idade (meses),Altura média (cm),Peso médio (kg)
0,49.1 ,3.2 
1,53.7 ,4.2 
2,57.1 ,5.1 
3,59.8 ,5.8 
4,62.1 ,6.4 
5,64.0 ,6.9 
6,65.7 ,7.3 
7,67.3 ,7.6 
8,68.7 ,7.9 
9,70.1 ,8.2 
10,71.5 ,8.5 
11,72.8 ,8.7 
12,74.0 ,8.9 
13,75.2 ,9.2 
14,76.4 ,9.4 
15,77.5 ,9.6 
16,78.6 ,9.8 
17,79.7 ,10.0 
18,80.7 ,10.2 
19,81.7 ,10.4 
20,82.7 ,10.6 
21,83.7 ,10.9 
22,84.6 ,11.1 
23,85.5 ,11.3 
24,86.4 ,11.5 
